Time (s),Velocity (rad/s),Voltage (V)
1.9073486328125e-06,-0.06,-3.42
0.0053882598876953125,-0.06,10.0
0.024609088897705078,0.07,10.0
0.04545927047729492,0.33,10.0
0.06544113159179688,0.85,10.0
0.08566021919250488,1.56,10.0
0.1062784194946289,2.4,10.0
0.12644147872924805,3.42,10.0
0.1466381549835205,4.63,10.0
0.16671490669250488,6.02,10.0
0.18759369850158691,7.53,10.0
0.2076740264892578,9.16,10.0
0.22757863998413086,10.9,10.0
0.24848198890686035,12.75,10.0
0.2685205936431885,14.66,10.0
0.28868961334228516,16.6,10.0
0.3096489906311035,18.6,10.0
0.3296511173248291,20.57,10.0
0.34959983825683594,22.59,10.0
0.3703114986419678,24.59,10.0
0.39044976234436035,26.63,10.0
0.41059374809265137,28.66,10.0
0.43062448501586914,30.6,10.0
0.45138096809387207,32.58,10.0
0.471480131149292,34.55,10.0
0.4915771484375,36.49,10.0
0.5123066902160645,38.42,10.0
0.5324070453643799,40.33,10.0
0.5529370307922363,42.21,10.0
0.5727314949035645,44.08,10.0
0.5932765007019043,45.93,10.0
0.6135339736938477,47.76,10.0
0.6334948539733887,49.51,10.0
0.6542563438415527,51.37,10.0
0.6745657920837402,53.08,10.0
0.6945877075195312,54.91,10.0
0.7152941226959229,56.65,10.0
0.7354950904846191,58.31,10.0
0.7554340362548828,60.08,10.0
0.7753477096557617,61.71,10.0
0.8124089241027832,63.45,10.0
0.8162500858306885,65.04,10.0
0.836540937423706,66.74,10.0
0.8577291965484619,68.3,10.0
0.8776507377624512,69.97,10.0
0.8972642421722412,71.5,10.0
0.917588472366333,73.07,10.0
0.9383742809295654,74.63,10.0
0.9586212635040283,76.18,10.0
0.9785914421081543,77.71,10.0
0.999382495880127,79.22,10.0
1.0194058418273926,80.79,10.0
1.0395495891571045,82.2,10.0
1.0603086948394775,83.74,10.0
1.0807335376739502,85.13,10.0
1.1006269454956055,86.63,10.0
1.120586633682251,87.99,10.0
1.141312837600708,89.4,10.0
1.1615049839019775,90.8,10.0
1.1812622547149658,92.18,10.0
1.217574119567871,93.55,10.0
1.222440242767334,94.9,10.0
1.2423803806304932,96.31,10.0
1.2624602317810059,97.57,10.0
1.2833843231201172,98.95,10.0
1.3035719394683838,100.19,10.0
1.3242294788360596,101.54,10.0
1.3445539474487305,102.75,10.0
1.3646767139434814,104.08,10.0
1.384504795074463,105.27,10.0
1.4054193496704102,106.57,10.0
1.4264640808105469,107.73,10.0
1.4458558559417725,109.01,10.0
1.4663653373718262,110.21,10.0
1.4863812923431396,111.33,10.0
1.506748914718628,112.58,10.0
1.526564359664917,113.67,10.0
1.5475282669067383,114.89,10.0
1.5674867630004883,115.97,10.0
1.5874273777008057,117.17,10.0
1.6082921028137207,118.22,10.0
1.6294970512390137,119.39,10.0
1.6484792232513428,120.43,10.0
1.668497085571289,121.58,10.0
1.6894738674163818,122.65,10.0
1.7096264362335205,123.65,10.0
1.7294094562530518,124.77,10.0
1.7504777908325195,125.75,10.0
1.770463228225708,126.85,10.0
1.790531873703003,127.8,10.0
1.8113305568695068,128.88,10.0
1.8326034545898438,129.82,10.0
1.85123872756958,130.88,10.0
1.8713598251342773,131.79,10.0
1.8921682834625244,132.83,10.0
1.9127111434936523,133.79,10.0
1.9324984550476074,134.75,10.0
1.9534790515899658,135.69,10.0
1.973569631576538,136.56,10.0
1.9933314323425293,137.55,10.0
2.013533115386963,138.4,10.0
2.035496711730957,139.37,10.0
2.0546658039093018,140.27,10.0
2.0744683742523193,141.16,10.0
2.0953760147094727,142.04,10.0
2.1153008937835693,142.91,10.0
2.135505199432373,143.77,10.0
2.1562588214874268,144.62,10.0
2.1766860485076904,145.47,10.0
2.196455240249634,146.3,10.0
2.23348331451416,147.13,10.0
2.2384893894195557,147.95,10.0
2.2574543952941895,148.76,10.0
2.2774765491485596,149.56,10.0
2.2982566356658936,150.36,10.0
2.3186984062194824,151.15,10.0
2.338425397872925,151.92,10.0
2.358668804168701,152.7,10.0
2.3794429302215576,153.46,10.0
2.399494171142578,154.22,10.0
2.4365813732147217,154.96,10.0
2.441405773162842,155.71,10.0
2.460352659225464,156.44,10.0
2.480491876602173,157.17,10.0
2.5013885498046875,157.88,10.0
2.521364688873291,158.6,10.0
2.5415353775024414,159.3,10.0
2.5616297721862793,160.06,10.0
2.5822770595550537,160.69,10.0
2.602424144744873,161.44,10.0
2.6393537521362305,162.05,10.0
2.6443073749542236,162.79,10.0
2.6634247303009033,163.38,10.0
2.683534860610962,164.1,10.0
2.7033703327178955,164.75,10.0
2.724273681640625,165.4,10.0
2.7444639205932617,166.03,10.0
2.764376163482666,166.66,10.0
2.7855007648468018,167.29,10.0
2.8054280281066895,167.91,10.0
2.8425333499908447,168.52,10.0
2.8474133014678955,169.12,10.0
2.8663768768310547,169.72,10.0
2.8865015506744385,170.32,10.0
2.9066600799560547,170.9,10.0
2.9275126457214355,171.49,10.0
2.9473671913146973,172.06,10.0
2.9673540592193604,172.63,10.0
2.9881489276885986,173.2,10.0
3.008469820022583,173.76,10.0
3.0454940795898438,174.31,10.0
3.0503735542297363,174.86,10.0
3.0695254802703857,175.4,10.0
3.0892903804779053,175.94,10.0
3.1096038818359375,176.47,10.0
3.130432367324829,176.99,10.0
3.150355100631714,177.51,10.0
3.170382022857666,178.03,10.0
3.1904361248016357,178.54,10.0
3.2114226818084717,179.04,10.0
3.2482714653015137,179.61,10.0
3.2532694339752197,180.04,10.0
3.2722699642181396,180.6,10.0
3.292400598526001,181.02,10.0
3.31253981590271,181.56,10.0
3.3333706855773926,182.04,10.0
3.353708028793335,182.51,10.0
3.373398542404175,182.97,10.0
3.393380641937256,183.43,10.0
3.4143459796905518,183.89,10.0
3.43424654006958,184.34,10.0
3.4567205905914307,184.79,10.0
3.475402355194092,185.23,10.0
3.49531626701355,185.67,10.0
3.515557289123535,186.1,10.0
3.5356099605560303,186.53,10.0
3.556226968765259,186.96,10.0
3.57643985748291,187.38,10.0
3.596583843231201,187.8,10.0
3.617279052734375,188.21,10.0
3.654517650604248,188.62,10.0
3.6592183113098145,189.02,10.0
3.678131341934204,189.42,10.0
3.6986544132232666,189.82,10.0
3.7185277938842773,190.21,10.0
3.7383508682250977,190.6,10.0
3.7593772411346436,191.05,10.0
3.7792887687683105,191.37,10.0
3.7997169494628906,191.81,10.0
3.8204121589660645,192.18,10.0
3.8404335975646973,192.55,10.0
3.861382246017456,192.92,10.0
3.8804733753204346,193.28,10.0
3.9012346267700195,193.64,10.0
3.9216084480285645,193.99,10.0
3.9415557384490967,194.34,10.0
3.962350606918335,194.69,10.0
3.9823622703552246,195.03,10.0
4.002421855926514,195.37,10.0
4.0233378410339355,195.71,10.0
4.043535947799683,196.04,10.0
4.064570665359497,196.37,10.0
4.083327531814575,196.7,10.0
4.104478120803833,197.02,10.0
4.124319314956665,197.34,10.0
4.144394159317017,197.66,10.0
4.165299654006958,197.98,10.0
4.185323238372803,198.29,10.0
4.205425977706909,198.66,10.0
4.225491523742676,198.9,10.0
4.246472597122192,199.27,10.0
4.2674970626831055,199.56,10.0
4.286494493484497,199.86,10.0
4.307210683822632,200.09,10.0
4.327514886856079,200.44,10.0
4.347681283950806,200.73,10.0
4.367294549942017,201.01,10.0
4.38838529586792,201.29,10.0
4.408458709716797,201.57,10.0
4.428773641586304,201.84,10.0
4.466536998748779,202.12,10.0
4.470466613769531,202.39,10.0
4.489306211471558,202.65,10.0
4.510488986968994,202.92,10.0
4.530525207519531,203.18,10.0
4.550491094589233,203.5,10.0
4.570565700531006,203.69,10.0
4.591236591339111,204.01,10.0
4.61154317855835,204.2,10.0
4.631442070007324,204.51,10.0
4.668517351150513,204.76,10.0
4.673492670059204,205.0,10.0
4.692320346832275,205.24,10.0
4.7123706340789795,205.48,10.0
4.733494997024536,205.72,10.0
4.7532734870910645,205.95,10.0
4.773303985595703,206.18,10.0
4.794280290603638,206.41,10.0
4.814191818237305,206.64,10.0
4.834339618682861,206.86,10.0
4.871557712554932,207.15,10.0
4.876365900039673,207.3,10.0
4.89546275138855,207.59,10.0
4.915490388870239,207.73,10.0
4.9363930225372314,208.01,10.0
4.956386566162109,208.22,10.0
4.976362228393555,208.43,10.0
4.9975426197052,208.64,10.0
5.0174243450164795,208.84,10.0
5.037150621414185,209.05,10.0
5.074383497238159,209.25,10.0
5.0791990756988525,209.44,10.0
5.098404407501221,209.64,10.0
5.1185081005096436,209.84,10.0
5.1393303871154785,210.03,10.0
5.159344911575317,210.22,10.0
5.179520845413208,210.41,10.0
5.199207782745361,210.66,10.0
5.220141649246216,210.84,10.0
5.240356683731079,211.03,10.0
5.260297536849976,211.21,10.0
5.282330513000488,211.38,10.0
5.301238536834717,211.56,10.0
5.321246862411499,211.74,10.0
5.342252969741821,211.91,10.0
5.362277984619141,212.08,10.0
5.382323980331421,212.25,10.0
5.402344465255737,212.42,10.0
5.423266410827637,212.59,10.0
5.443270444869995,212.75,10.0
5.463282346725464,212.98,10.0
5.48533034324646,213.14,10.0
5.504190444946289,213.3,10.0
5.524176120758057,213.46,10.0
5.545106649398804,213.61,10.0
5.5652594566345215,213.77,10.0
5.5852906703948975,213.92,10.0
5.605254650115967,214.07,10.0
5.626146078109741,214.22,10.0
5.646279335021973,214.37,10.0
5.666355848312378,214.52,10.0
5.688295841217041,214.66,10.0
5.70733904838562,214.81,10.0
5.727338552474976,215.02,10.0
5.747458457946777,215.16,10.0
5.7683446407318115,215.3,10.0
5.788485527038574,215.43,10.0
5.808667182922363,215.57,10.0
5.829313516616821,215.71,10.0
5.849439382553101,215.84,10.0
5.886699676513672,215.97,10.0
5.891352891921997,216.1,10.0
5.910038948059082,216.23,10.0
5.930256128311157,216.36,10.0
5.9503889083862305,216.49,10.0
5.971151113510132,216.61,10.0
5.9915502071380615,216.8,10.0
6.011657238006592,216.93,10.0
6.032305002212524,217.05,10.0
6.052481174468994,217.17,10.0
6.072453260421753,217.29,10.0
6.094590902328491,217.4,10.0
6.113351821899414,217.52,10.0
6.133117437362671,217.64,10.0
6.153309345245361,217.75,10.0
6.174093246459961,217.86,10.0
6.194199323654175,217.98,10.0
6.214412212371826,218.15,10.0
6.234374046325684,218.2,10.0
6.255287408828735,218.37,10.0
6.275635242462158,218.48,10.0
6.297435998916626,218.58,10.0
6.316390037536621,218.69,10.0
6.336221694946289,218.79,10.0
6.356347322463989,218.9,10.0
6.377460241317749,219.0,10.0
6.398585796356201,219.1,10.0
6.417536020278931,219.2,10.0
6.437565326690674,219.3,10.0
6.458319187164307,219.39,10.0
6.478412866592407,219.56,10.0
6.5003883838653564,219.59,10.0
6.519155740737915,219.75,10.0
6.539318323135376,219.84,10.0
6.559401035308838,219.93,10.0
6.579310417175293,220.02,10.0
6.600381135940552,220.11,10.0
6.620571851730347,220.2,10.0
6.640393972396851,220.29,10.0
6.6612184047698975,220.38,10.0
6.68121862411499,220.47,10.0
6.703200578689575,220.55,10.0
6.722335577011108,220.64,10.0
6.7424476146698,220.72,10.0
6.762165546417236,220.81,10.0
6.782342910766602,220.95,10.0
6.803131341934204,221.04,10.0
6.823230028152466,221.12,10.0
6.843364715576172,221.2,10.0
6.864351034164429,221.27,10.0
6.901374101638794,221.35,10.0
6.905250310897827,221.43,10.0
6.924314737319946,221.51,10.0
6.945201396942139,221.58,10.0
6.965319395065308,221.66,10.0
6.985309362411499,221.73,10.0
7.0061938762664795,221.87,10.0
7.026256322860718,221.88,10.0
7.0461859703063965,222.01,10.0
7.066471815109253,222.08,10.0
7.104196786880493,222.15,10.0
7.108364582061768,222.22,10.0
7.127573490142822,222.29,10.0
7.148292064666748,222.36,10.0
7.168509483337402,222.43,10.0
7.188381910324097,222.49,10.0
7.2091615200042725,222.56,10.0
7.2295026779174805,222.69,10.0
7.249257564544678,222.69,10.0
7.269469499588013,222.82,10.0
7.2902655601501465,222.88,10.0
7.311327219009399,222.94,10.0
7.330323219299316,223.0,10.0
7.351290225982666,223.06,10.0
7.371436595916748,223.12,10.0
7.39147162437439,223.18,10.0
7.411402463912964,223.24,10.0
7.432227373123169,223.3,10.0
7.452298164367676,223.42,10.0
7.47224235534668,223.41,10.0
7.493061780929565,223.54,10.0
7.5143656730651855,223.59,10.0
7.533257961273193,223.65,10.0
7.554004669189453,223.7,10.0
7.574474334716797,223.76,10.0
7.594350814819336,223.81,10.0
7.614323377609253,223.86,10.0
7.635367155075073,223.91,10.0
7.655419111251831,223.96,10.0
7.675433158874512,224.08,10.0
7.712360620498657,224.07,10.0
7.717672109603882,224.18,10.0
7.736388206481934,224.16,10.0
7.756586790084839,224.28,10.0
7.777257442474365,224.33,10.0
7.797367811203003,224.37,10.0
7.8175249099731445,224.42,10.0
7.838326692581177,224.47,10.0
7.858152151107788,224.51,10.0
7.878554105758667,224.56,10.0
7.915313720703125,224.61,10.0
7.920323610305786,224.65,10.0
7.939250469207764,224.76,10.0
7.959389925003052,224.8,10.0
7.980167388916016,224.85,10.0
8.000332355499268,224.89,10.0
8.020260334014893,224.93,10.0
8.041207075119019,224.97,10.0
8.061618328094482,225.01,10.0
8.081276655197144,225.05,10.0
8.10155463218689,225.16,10.0
8.12323260307312,225.13,10.0
8.14248776435852,225.24,10.0
8.162349939346313,225.28,10.0
8.183387994766235,225.31,10.0
8.203328847885132,225.35,10.0
8.223376035690308,225.39,10.0
8.243392705917358,225.42,10.0
8.264267206192017,225.46,10.0
8.284576416015625,225.56,10.0
8.321483612060547,225.53,10.0
8.326389789581299,225.63,10.0
8.34517240524292,225.67,10.0
8.36510181427002,225.7,10.0
8.386223316192627,225.74,10.0
8.406058311462402,225.77,10.0
8.426167011260986,225.8,10.0
8.446415424346924,225.83,10.0
8.467524766921997,225.87,10.0
8.487249851226807,225.9,10.0
8.507504940032959,226.0,10.0
8.52941107749939,225.96,10.0
8.548061609268188,226.06,10.0
8.568313837051392,226.09,10.0
8.588403463363647,226.12,10.0
8.609167337417603,226.15,10.0
8.629419803619385,226.18,10.0
8.649346590042114,226.21,10.0
8.670114755630493,226.23,10.0
8.690392971038818,226.26,10.0
8.71056580543518,226.36,10.0
8.73218297958374,226.38,10.0
8.75133228302002,226.41,10.0
8.771407127380371,226.44,10.0
8.79131269454956,226.46,10.0
8.81223726272583,226.49,10.0
8.83246922492981,226.52,10.0
8.85231328010559,226.61,10.0
8.87342095375061,226.57,10.0
8.893327951431274,226.66,10.0
8.930505514144897,226.68,10.0
8.935285568237305,226.7,10.0
8.954403162002563,226.73,10.0
8.974372386932373,226.75,10.0
8.994384288787842,226.77,10.0
9.015080213546753,226.8,10.0
9.035405397415161,226.89,10.0
9.055676698684692,226.84,10.0
9.076337337493896,226.93,10.0
9.09653353691101,226.95,10.0
9.133342504501343,226.97,10.0
9.138161182403564,226.99,10.0
9.157288789749146,227.01,10.0
9.177665948867798,227.04,10.0
9.197402954101562,227.06,10.0
9.21819519996643,227.08,10.0
9.238299369812012,227.16,10.0
9.2581787109375,227.18,10.0
9.27870512008667,227.2,10.0
9.299276113510132,227.22,10.0
9.319608211517334,227.24,10.0
9.3411545753479,227.26,10.0
9.360015869140625,227.27,10.0
9.380199193954468,227.36,10.0
9.400608539581299,227.31,10.0
9.420998334884644,227.39,10.0
9.441335439682007,227.41,10.0
9.461254596710205,227.43,10.0
9.481393337249756,227.44,10.0
9.50230097770691,227.46,10.0
9.522145509719849,227.47,10.0
9.544029712677002,227.49,10.0
9.56317663192749,227.51,10.0
9.583123922348022,227.52,10.0
9.603219747543335,227.6,10.0
9.623040914535522,227.62,10.0
9.64420199394226,227.63,10.0
9.66438889503479,227.65,10.0
9.684345245361328,227.66,10.0
9.705167055130005,227.67,10.0
9.742419958114624,227.75,10.0
9.747148275375366,227.7,10.0
9.766239404678345,227.78,10.0
9.786177635192871,227.79,10.0
9.80637526512146,227.81,10.0
9.826470851898193,227.82,10.0
9.847038745880127,227.83,10.0
9.867274284362793,227.84,10.0
9.88728666305542,227.86,10.0
9.908170223236084,227.93,10.0
9.928174018859863,227.88,10.0
9.949395179748535,227.96,10.0
9.968048334121704,227.97,10.0
9.98938775062561,227.98,10.0
